index,altitude - sea level (m),latitude (degree),longitude (degree),yaw - north is zero (degree),roll (degree),pitch (degree)
1,114.1900024414062,49.25736236572266,-123.2431106567383,119.2300033569336,-9.699999809265137,5.849999904632568
2,114.4400024414062,49.25735855102539,-123.2431106567383,119.2300033569336,-10,6.039999961853027
3,114.7099990844727,49.25736236572266,-123.2431106567383,119.2300033569336,-9.810000419616699,6.019999980926514
4,114.9400024414062,49.25735855102539,-123.2431106567383,119.0599975585938,-8.850000381469727,-2.329999923706055
5,114.9499969482422,49.25735855102539,-123.2430953979492,119.1600036621094,-8.770000457763672,-2.700000047683716
6,114.9599990844727,49.25735473632812,-123.2430877685547,122.9400024414062,-9.130000114440918,-4.550000190734863
7,114.9599990844727,49.25735092163086,-123.2430725097656,123.5699996948242,-9.409999847412109,-6.96999979019165
8,114.9599990844727,49.25734329223633,-123.2430725097656,122.0899963378906,-9.060000419616699,-8.75
9,114.9700012207031,49.25733947753906,-123.2430572509766,121.4199981689453,-8.909999847412109,-9.520000457763672
10,114.9700012207031,49.25733947753906,-123.243049621582,121.75,-9.079999923706055,-9.680000305175781
11,114.9700012207031,49.25733184814453,-123.243034362793,122.3000030517578,-9.319999694824219,-9.810000419616699
12,114.9700012207031,49.25732421875,-123.2430191040039,122.4199981689453,-9.380000114440918,-9.989999771118164
13,114.9700012207031,49.25732040405273,-123.2430114746094,122.1999969482422,-9.25,-10.3100004196167
14,114.9700012207031,49.25731658935547,-123.2429962158203,121.9499969482422,-9.25,-10.55000019073486
15,114.9700012207031,49.25730895996094,-123.2429809570312,121.9000015258789,-9.239999771118164,-10.73999977111816
16,114.9700012207031,49.25730133056641,-123.2429580688477,122,-9.220000267028809,-10.84000015258789
17,114.9700012207031,49.25729751586914,-123.2429428100586,122.0999984741211,-9.300000190734863,-10.98999977111816
18,114.9800033569336,49.25728988647461,-123.2429275512695,122.120002746582,-9.319999694824219,-11.22000026702881
19,114.9800033569336,49.25728225708008,-123.242919921875,122.0800018310547,-9.310000419616699,-11.3100004196167
20,114.9800033569336,49.25727844238281,-123.2428894042969,122.0800018310547,-9.239999771118164,-11.47999954223633
21,114.9800033569336,49.25727081298828,-123.2428817749023,122.129997253418,-9.180000305175781,-11.57999992370605
22,114.9800033569336,49.25725936889648,-123.2428665161133,122.1800003051758,-9.189999580383301,-11.65999984741211
23,114.9800033569336,49.25725555419922,-123.2428436279297,122.2300033569336,-9.25,-11.73999977111816
24,114.9800033569336,49.25724792480469,-123.2428283691406,122.2600021362305,-9.220000267028809,-11.82999992370605
25,114.9800033569336,49.25724029541016,-123.242805480957,122.2600021362305,-9.189999580383301,-11.84000015258789
26,114.9800033569336,49.25723648071289,-123.242790222168,122.2900009155273,-9.220000267028809,-12
27,114.9800033569336,49.25722503662109,-123.2427749633789,122.3000030517578,-9.199999809265137,-12.10999965667725
28,114.9899978637695,49.25721740722656,-123.2427520751953,122.3099975585938,-9.199999809265137,-12.10999965667725
29,114.9899978637695,49.2572135925293,-123.2427368164062,122.3399963378906,-9.170000076293945,-12.11999988555908
30,114.9899978637695,49.2572021484375,-123.2427139282227,122.370002746582,-9.199999809265137,-12.22000026702881
31,114.9899978637695,49.25719833374023,-123.2426986694336,122.3600006103516,-9.229999542236328,-12.22999954223633
32,114.9899978637695,49.2571907043457,-123.24267578125,122.3600006103516,-9.159999847412109,-12.27000045776367
33,114.9899978637695,49.25717926025391,-123.2426605224609,122.3600006103516,-9.210000038146973,-12.32999992370605
34,114.9899978637695,49.25717544555664,-123.2426528930664,122.370002746582,-9.210000038146973,-12.35999965667725
35,114.9899978637695,49.25716400146484,-123.2426223754883,122.379997253418,-9.119999885559082,-12.38000011444092
36,114.9899978637695,49.25716018676758,-123.2426147460938,122.3899993896484,-9.149999618530273,-12.46000003814697
37,114.9899978637695,49.25715255737305,-123.2425842285156,122.3899993896484,-9.220000267028809,-12.43000030517578
38,114.9899978637695,49.25714111328125,-123.2425765991211,122.4100036621094,-9.210000038146973,-12.48999977111816
39,114.9899978637695,49.25713729858398,-123.242546081543,122.4000015258789,-9.159999847412109,-12.52999973297119
40,114.9899978637695,49.25712585449219,-123.2425308227539,122.379997253418,-9.090000152587891,-12.51000022888184
41,114.9899978637695,49.25711822509766,-123.2425079345703,122.3899993896484,-9.109999656677246,-12.52000045776367
42,114.9899978637695,49.25711441040039,-123.2424926757812,122.4100036621094,-9.130000114440918,-12.56999969482422
43,114.9899978637695,49.25710296630859,-123.2424697875977,122.4300003051758,-9.109999656677246,-12.6899995803833
44,114.9899978637695,49.25709915161133,-123.2424545288086,122.4199981689453,-9.100000381469727,-12.63000011444092
45,114.9800033569336,49.25708770751953,-123.242431640625,122.4199981689453,-9.140000343322754,-12.64000034332275
46,114.9800033569336,49.257080078125,-123.2424163818359,122.4199981689453,-9.140000343322754,-12.60999965667725
47,114.9800033569336,49.25707244873047,-123.2423934936523,122.4300003051758,-9.149999618530273,-12.63000011444092
48,114.9800033569336,49.25706481933594,-123.2423782348633,122.4300003051758,-9.119999885559082,-12.69999980926514
49,114.9800033569336,49.25706100463867,-123.2423553466797,122.4199981689453,-9.079999923706055,-12.64999961853027
50,114.9800033569336,49.25704956054688,-123.2423400878906,122.4400024414062,-9.060000419616699,-12.68000030517578
51,114.9899978637695,49.25704193115234,-123.242317199707,122.4499969482422,-9.090000152587891,-12.71000003814697
52,114.9899978637695,49.25703430175781,-123.242301940918,122.4400024414062,-9.090000152587891,-12.71000003814697
53,114.9899978637695,49.25702667236328,-123.2422790527344,122.4300003051758,-9.090000152587891,-12.72999954223633
54,114.9899978637695,49.25701904296875,-123.2422637939453,122.4300003051758,-9.060000419616699,-12.68000030517578
55,114.9899978637695,49.25701141357422,-123.2422409057617,122.4499969482422,-9.109999656677246,-12.8100004196167
56,114.9899978637695,49.25699996948242,-123.2422256469727,122.4300003051758,-9.079999923706055,-12.78999996185303
57,114.9899978637695,49.25699615478516,-123.2422027587891,122.4100036621094,-9.039999961853027,-12.75
58,114.9899978637695,49.25698471069336,-123.2421875,122.4100036621094,-9.109999656677246,-12.77000045776367
59,114.9899978637695,49.25698089599609,-123.2421646118164,122.4100036621094,-9.149999618530273,-12.78999996185303
60,114.9899978637695,49.25697326660156,-123.2421493530273,122.3899993896484,-9.149999618530273,-12.81999969482422
61,114.9899978637695,49.25696182250977,-123.2421264648438,122.3499984741211,-9.109999656677246,-12.55000019073486
62,114.9899978637695,49.2569580078125,-123.2421112060547,122.3199996948242,-9.170000076293945,-11.77000045776367
63,114.9899978637695,49.2569465637207,-123.2420883178711,122.3499984741211,-9.159999847412109,-10.89000034332275
64,114.9899978637695,49.25693893432617,-123.242073059082,122.4100036621094,-9.109999656677246,-9.819999694824219
65,114.9899978637695,49.25693130493164,-123.2420501708984,122.4499969482422,-9.159999847412109,-8.609999656677246
66,114.9899978637695,49.25692367553711,-123.2420349121094,122.4700012207031,-9.199999809265137,-7.090000152587891
67,114.9899978637695,49.25691986083984,-123.2420196533203,122.5299987792969,-9.210000038146973,-5.21999979019165
68,115,49.25691223144531,-123.2419967651367,122.6500015258789,-9.119999885559082,-3.160000085830688
69,115,49.25690460205078,-123.2419815063477,122.8600006103516,-9.180000305175781,-1.299999952316284
70,115,49.25690078735352,-123.2419738769531,123.0899963378906,-9.159999847412109,0.4900000095367432
71,115,49.25689697265625,-123.2419586181641,123.3399963378906,-9.069999694824219,2.509999990463257
72,115,49.25689315795898,-123.2419586181641,123.7699966430664,-8.890000343322754,4.670000076293945
73,115,49.25688934326172,-123.241943359375,124.379997253418,-8.630000114440918,7.46999979019165
74,114.9899978637695,49.25688552856445,-123.2419357299805,124.6999969482422,-8.470000267028809,10.59000015258789
75,114.9899978637695,49.25688171386719,-123.2419357299805,124.8499984741211,-8.409999847412109,10.85999965667725
