index,altitude - sea level (m),latitude (degree),longitude (degree),yaw - north is zero (degree),roll (degree),pitch (degree)
1,114.25,49.25736236572266,-123.2431106567383,119.2300033569336,-9.770000457763672,5.909999847412109
2,114.4800033569336,49.25735855102539,-123.2431106567383,119.2300033569336,-10,6.070000171661377
3,114.7300033569336,49.25736236572266,-123.2431106567383,119.2300033569336,-9.800000190734863,6.019999980926514
4,114.9300003051758,49.25735855102539,-123.2431106567383,119.0199966430664,-8.899999618530273,-1.830000042915344
5,114.9400024414062,49.25735855102539,-123.2430953979492,119.1100006103516,-8.819999694824219,-2.599999904632568
6,114.9599990844727,49.25735473632812,-123.2430877685547,124.0500030517578,-9.369999885559082,-4.769999980926514
7,114.9599990844727,49.25735092163086,-123.2430877685547,124.2600021362305,-9.609999656677246,-5.940000057220459
8,114.9599990844727,49.25734710693359,-123.2430725097656,122.8600006103516,-9.25,-7.900000095367432
9,114.9599990844727,49.25734329223633,-123.2430572509766,121.5999984741211,-8.939999580383301,-9.25
10,114.9599990844727,49.25733947753906,-123.243049621582,121.4599990844727,-8.930000305175781,-9.619999885559082
11,114.9700012207031,49.2573356628418,-123.243034362793,122.0400009155273,-9.210000038146973,-9.739999771118164
12,114.9700012207031,49.25732803344727,-123.2430191040039,122.4400024414062,-9.380000114440918,-9.909999847412109
13,114.9700012207031,49.25732421875,-123.2430114746094,122.3600006103516,-9.350000381469727,-10.14000034332275
14,114.9700012207031,49.25731658935547,-123.2429962158203,122.0699996948242,-9.199999809265137,-10.47000026702881
15,114.9700012207031,49.2573127746582,-123.2429809570312,121.9000015258789,-9.210000038146973,-10.65999984741211
16,114.9700012207031,49.25730514526367,-123.2429733276367,121.9499969482422,-9.25,-10.81999969482422
17,114.9700012207031,49.25729751586914,-123.2429580688477,122.0599975585938,-9.229999542236328,-10.89000034332275
18,114.9700012207031,49.25729370117188,-123.2429428100586,122.1500015258789,-9.300000190734863,-11.06999969482422
19,114.9800033569336,49.25728607177734,-123.242919921875,122.1500015258789,-9.310000419616699,-11.30000019073486
20,114.9800033569336,49.25727844238281,-123.2429046630859,122.0899963378906,-9.279999732971191,-11.35999965667725
21,114.9800033569336,49.25727462768555,-123.2428894042969,122.1100006103516,-9.239999771118164,-11.52999973297119
22,114.9800033569336,49.25726699829102,-123.2428665161133,122.1500015258789,-9.189999580383301,-11.60999965667725
23,114.9800033569336,49.25725936889648,-123.2428512573242,122.1999969482422,-9.189999580383301,-11.72000026702881
24,114.9800033569336,49.25725173950195,-123.2428436279297,122.2300033569336,-9.260000228881836,-11.80000019073486
25,114.9800033569336,49.25724411010742,-123.2428131103516,122.25,-9.229999542236328,-11.86999988555908
26,114.9800033569336,49.25724029541016,-123.242805480957,122.25,-9.199999809265137,-11.88000011444092
27,114.9800033569336,49.25722885131836,-123.2427749633789,122.2699966430664,-9.229999542236328,-12.02999973297119
28,114.9800033569336,49.25722122192383,-123.2427673339844,122.2900009155273,-9.199999809265137,-12.14999961853027
29,114.9899978637695,49.25721740722656,-123.2427520751953,122.3099975585938,-9.199999809265137,-12.14000034332275
30,114.9899978637695,49.25720977783203,-123.2427291870117,122.3399963378906,-9.170000076293945,-12.14000034332275
31,114.9899978637695,49.25719833374023,-123.2427139282227,122.370002746582,-9.199999809265137,-12.23999977111816
32,114.9899978637695,49.25719451904297,-123.2426910400391,122.3600006103516,-9.210000038146973,-12.26000022888184
33,114.9899978637695,49.25718307495117,-123.24267578125,122.370002746582,-9.140000343322754,-12.30000019073486
34,114.9899978637695,49.25717926025391,-123.2426528930664,122.379997253418,-9.189999580383301,-12.35000038146973
35,114.9899978637695,49.25717163085938,-123.2426376342773,122.3899993896484,-9.210000038146973,-12.38000011444092
36,114.9899978637695,49.25716018676758,-123.2426147460938,122.4000015258789,-9.109999656677246,-12.39000034332275
37,114.9899978637695,49.25715637207031,-123.2425994873047,122.4100036621094,-9.149999618530273,-12.47000026702881
38,114.9899978637695,49.25714492797852,-123.2425765991211,122.4000015258789,-9.210000038146973,-12.44999980926514
39,114.9899978637695,49.25713729858398,-123.242561340332,122.4000015258789,-9.189999580383301,-12.48999977111816
40,114.9899978637695,49.25713348388672,-123.2425308227539,122.4000015258789,-9.159999847412109,-12.53999996185303
41,114.9899978637695,49.25712203979492,-123.2425231933594,122.379997253418,-9.090000152587891,-12.52999973297119
42,114.9899978637695,49.25711822509766,-123.2424926757812,122.3899993896484,-9.109999656677246,-12.53999996185303
43,114.9899978637695,49.25710678100586,-123.2424850463867,122.4100036621094,-9.140000343322754,-12.59000015258789
44,114.9899978637695,49.25709915161133,-123.2424697875977,122.4199981689453,-9.119999885559082,-12.69999980926514
45,114.9899978637695,49.25709533691406,-123.2424468994141,122.4000015258789,-9.109999656677246,-12.64000034332275
46,114.9800033569336,49.25708389282227,-123.242431640625,122.4000015258789,-9.119999885559082,-12.64000034332275
47,114.9800033569336,49.257080078125,-123.2424087524414,122.4000015258789,-9.130000114440918,-12.61999988555908
48,114.9800033569336,49.2570686340332,-123.2423934936523,122.4199981689453,-9.140000343322754,-12.64999961853027
49,114.9800033569336,49.25706100463867,-123.2423706054688,122.4300003051758,-9.100000381469727,-12.71000003814697
50,114.9800033569336,49.25705337524414,-123.2423553466797,122.4199981689453,-9.079999923706055,-12.67000007629395
51,114.9800033569336,49.25704574584961,-123.2423324584961,122.4400024414062,-9.060000419616699,-12.6899995803833
52,114.9899978637695,49.25703811645508,-123.242317199707,122.4400024414062,-9.100000381469727,-12.72000026702881
53,114.9899978637695,49.25703048706055,-123.2422943115234,122.4400024414062,-9.079999923706055,-12.72999954223633
54,114.9899978637695,49.25702285766602,-123.2422790527344,122.4400024414062,-9.100000381469727,-12.73999977111816
55,114.9899978637695,49.25701522827148,-123.2422561645508,122.4199981689453,-9.050000190734863,-12.68000030517578
56,114.9899978637695,49.25700759887695,-123.2422409057617,122.4400024414062,-9.109999656677246,-12.8100004196167
57,114.9899978637695,49.25699996948242,-123.2422180175781,122.4199981689453,-9.090000152587891,-12.78999996185303
58,114.9899978637695,49.25699234008789,-123.2421875,122.4100036621094,-9.039999961853027,-12.75
59,114.9899978637695,49.25698089599609,-123.2421722412109,122.4100036621094,-9.100000381469727,-12.76000022888184
60,114.9899978637695,49.25697708129883,-123.2421493530273,122.4199981689453,-9.130000114440918,-12.78999996185303
61,114.9899978637695,49.25696563720703,-123.2421340942383,122.4000015258789,-9.140000343322754,-12.76000022888184
62,114.9899978637695,49.25696182250977,-123.2421112060547,122.3399963378906,-9.090000152587891,-12.25
63,114.9899978637695,49.25695037841797,-123.2420959472656,122.3199996948242,-9.180000305175781,-11.38000011444092
64,114.9899978637695,49.25694274902344,-123.242073059082,122.370002746582,-9.170000076293945,-10.39999961853027
65,114.9899978637695,49.25693893432617,-123.242057800293,122.4199981689453,-9.119999885559082,-9.229999542236328
66,114.9899978637695,49.25692749023438,-123.2420501708984,122.4700012207031,-9.180000305175781,-7.900000095367432
67,114.9899978637695,49.25691986083984,-123.2420196533203,122.5,-9.210000038146973,-6.239999771118164
68,115,49.25691604614258,-123.2420120239258,122.5599975585938,-9.189999580383301,-4.179999828338623
69,115,49.25690841674805,-123.2419967651367,122.7300033569336,-9.140000343322754,-2.210000038146973
70,115,49.25690078735352,-123.2419815063477,122.9599990844727,-9.170000076293945,-0.449999988079071
71,115,49.25690078735352,-123.2419738769531,123.1900024414062,-9.119999885559082,1.440000057220459
72,115,49.25689315795898,-123.2419586181641,123.5199966430664,-9.010000228881836,3.569999933242798
73,115,49.25688934326172,-123.241943359375,124.0800018310547,-8.770000457763672,5.920000076293945
74,114.9899978637695,49.25688552856445,-123.241943359375,124.5299987792969,-8.510000228881836,9.180000305175781
75,114.9899978637695,49.25688171386719,-123.2419357299805,124.7600021362305,-8.460000038146973,11.10000038146973
