index,altitude - sea level (m),latitude (degree),longitude (degree),yaw - north is zero (degree),roll (degree),pitch (degree)
1,114.25,49.25736236572266,-123.2431106567383,119.2200012207031,-9.760000228881836,5.909999847412109
2,114.4800033569336,49.25735855102539,-123.2431106567383,119.2300033569336,-9.909999847412109,6.079999923706055
3,114.7300033569336,49.25736236572266,-123.2431106567383,119.2399978637695,-9.850000381469727,5.929999828338623
4,114.9300003051758,49.25735855102539,-123.2431106567383,119.0500030517578,-8.869999885559082,-2.140000104904175
5,114.9400024414062,49.25735855102539,-123.2430953979492,119.1399993896484,-8.739999771118164,-2.619999885559082
6,114.9599990844727,49.25735473632812,-123.2430877685547,124.5,-9.520000457763672,-4.869999885559082
7,114.9599990844727,49.25735092163086,-123.2430725097656,124.1500015258789,-9.489999771118164,-6.420000076293945
8,114.9599990844727,49.25734710693359,-123.2430725097656,122.5699996948242,-9.159999847412109,-8.350000381469727
9,114.9599990844727,49.25734329223633,-123.2430572509766,121.5299987792969,-8.909999847412109,-9.449999809265137
10,114.9700012207031,49.25733947753906,-123.243049621582,121.629997253418,-9.010000228881836,-9.659999847412109
11,114.9700012207031,49.2573356628418,-123.243034362793,122.2200012207031,-9.279999732971191,-9.770000457763672
12,114.9700012207031,49.25732803344727,-123.2430191040039,122.4800033569336,-9.399999618530273,-9.930000305175781
13,114.9700012207031,49.25732040405273,-123.2430114746094,122.3099975585938,-9.289999961853027,-10.22000026702881
14,114.9700012207031,49.25731658935547,-123.2429962158203,122.0199966430664,-9.25,-10.51000022888184
15,114.9700012207031,49.2573127746582,-123.2429809570312,121.9199981689453,-9.229999542236328,-10.69999980926514
16,114.9700012207031,49.25730514526367,-123.2429733276367,122,-9.189999580383301,-10.80000019073486
17,114.9700012207031,49.25729751586914,-123.2429428100586,122.120002746582,-9.279999732971191,-10.96000003814697
18,114.9800033569336,49.25729370117188,-123.2429275512695,122.1699981689453,-9.310000419616699,-11.1899995803833
19,114.9800033569336,49.25728225708008,-123.242919921875,122.120002746582,-9.310000419616699,-11.27000045776367
20,114.9800033569336,49.25727844238281,-123.2429046630859,122.1100006103516,-9.25,-11.44999980926514
21,114.9800033569336,49.25727081298828,-123.2428817749023,122.129997253418,-9.189999580383301,-11.55000019073486
22,114.9800033569336,49.25726318359375,-123.2428665161133,122.1900024414062,-9.189999580383301,-11.64000034332275
23,114.9800033569336,49.25725936889648,-123.2428512573242,122.2399978637695,-9.25,-11.72000026702881
24,114.9800033569336,49.25725173950195,-123.2428283691406,122.2799987792969,-9.229999542236328,-11.8100004196167
25,114.9800033569336,49.25724029541016,-123.2428131103516,122.2699966430664,-9.199999809265137,-11.81999969482422
26,114.9800033569336,49.25723648071289,-123.242790222168,122.2900009155273,-9.229999542236328,-11.97999954223633
27,114.9800033569336,49.25722885131836,-123.2427749633789,122.3000030517578,-9.210000038146973,-12.10000038146973
28,114.9899978637695,49.25722122192383,-123.2427673339844,122.3000030517578,-9.220000267028809,-12.09000015258789
29,114.9899978637695,49.2572135925293,-123.2427368164062,122.3300018310547,-9.180000305175781,-12.10000038146973
30,114.9899978637695,49.25720596313477,-123.2427291870117,122.3499984741211,-9.210000038146973,-12.21000003814697
31,114.9899978637695,49.25719833374023,-123.2426986694336,122.3399963378906,-9.239999771118164,-12.21000003814697
32,114.9899978637695,49.2571907043457,-123.2426910400391,122.3399963378906,-9.159999847412109,-12.27000045776367
33,114.9899978637695,49.25718307495117,-123.2426605224609,122.3499984741211,-9.199999809265137,-12.32999992370605
34,114.9899978637695,49.25717544555664,-123.2426528930664,122.370002746582,-9.210000038146973,-12.35000038146973
35,114.9899978637695,49.25716781616211,-123.2426223754883,122.379997253418,-9.119999885559082,-12.36999988555908
36,114.9899978637695,49.25716018676758,-123.2426147460938,122.4000015258789,-9.130000114440918,-12.44999980926514
37,114.9899978637695,49.25715255737305,-123.2425994873047,122.4000015258789,-9.210000038146973,-12.42000007629395
38,114.9899978637695,49.25714492797852,-123.2425765991211,122.4100036621094,-9.199999809265137,-12.47000026702881
39,114.9899978637695,49.25713729858398,-123.242561340332,122.4100036621094,-9.159999847412109,-12.52000045776367
40,114.9899978637695,49.25712966918945,-123.2425308227539,122.379997253418,-9.100000381469727,-12.51000022888184
41,114.9899978637695,49.25712203979492,-123.2425231933594,122.3899993896484,-9.100000381469727,-12.52000045776367
42,114.9899978637695,49.25711441040039,-123.2424926757812,122.4100036621094,-9.130000114440918,-12.5600004196167
43,114.9899978637695,49.25710678100586,-123.2424850463867,122.4300003051758,-9.119999885559082,-12.68000030517578
44,114.9899978637695,49.25709915161133,-123.2424545288086,122.4199981689453,-9.100000381469727,-12.63000011444092
45,114.9899978637695,49.2570915222168,-123.2424468994141,122.4199981689453,-9.140000343322754,-12.64000034332275
46,114.9800033569336,49.257080078125,-123.2424163818359,122.4100036621094,-9.140000343322754,-12.60999965667725
47,114.9800033569336,49.25707626342773,-123.2424087524414,122.4199981689453,-9.149999618530273,-12.61999988555908
48,114.9800033569336,49.2570686340332,-123.2423782348633,122.4199981689453,-9.109999656677246,-12.71000003814697
49,114.9800033569336,49.25706100463867,-123.2423706054688,122.4100036621094,-9.100000381469727,-12.65999984741211
50,114.9800033569336,49.25705337524414,-123.2423400878906,122.4300003051758,-9.050000190734863,-12.67000007629395
51,114.9899978637695,49.25704193115234,-123.2423324584961,122.4400024414062,-9.079999923706055,-12.71000003814697
52,114.9899978637695,49.25703811645508,-123.242301940918,122.4400024414062,-9.090000152587891,-12.71000003814697
53,114.9899978637695,49.25702667236328,-123.2422943115234,122.4300003051758,-9.100000381469727,-12.72999954223633
54,114.9899978637695,49.25701904296875,-123.2422637939453,122.4199981689453,-9.060000419616699,-12.67000007629395
55,114.9899978637695,49.25701141357422,-123.2422561645508,122.4400024414062,-9.100000381469727,-12.8100004196167
56,114.9899978637695,49.25700378417969,-123.2422256469727,122.4199981689453,-9.079999923706055,-12.78999996185303
57,114.9899978637695,49.25699996948242,-123.2422180175781,122.4100036621094,-9.029999732971191,-12.75
58,114.9899978637695,49.25698852539062,-123.2421875,122.4199981689453,-9.109999656677246,-12.76000022888184
59,114.9899978637695,49.25698089599609,-123.2421722412109,122.4300003051758,-9.140000343322754,-12.77999973297119
60,114.9899978637695,49.25697326660156,-123.2421493530273,122.4100036621094,-9.149999618530273,-12.81999969482422
61,114.9899978637695,49.25696563720703,-123.2421340942383,122.370002746582,-9.109999656677246,-12.64999961853027
62,114.9899978637695,49.2569580078125,-123.2421112060547,122.3199996948242,-9.159999847412109,-11.98999977111816
63,114.9899978637695,49.25695037841797,-123.2420959472656,122.3300018310547,-9.149999618530273,-11.13000011444092
64,114.9899978637695,49.25693893432617,-123.242073059082,122.379997253418,-9.109999656677246,-10.11999988555908
65,114.9899978637695,49.25693511962891,-123.242057800293,122.4400024414062,-9.149999618530273,-8.939999580383301
66,114.9899978637695,49.25692749023438,-123.2420349121094,122.4700012207031,-9.199999809265137,-7.489999771118164
67,114.9899978637695,49.25691986083984,-123.2420196533203,122.5100021362305,-9.189999580383301,-5.699999809265137
68,115,49.25691604614258,-123.2420120239258,122.620002746582,-9.140000343322754,-3.710000038146973
69,115,49.25690841674805,-123.2419967651367,122.8000030517578,-9.189999580383301,-1.740000009536743
70,115,49.25690078735352,-123.2419738769531,123.0299987792969,-9.180000305175781,0.02999999932944775
71,115,49.25689697265625,-123.2419738769531,123.2600021362305,-9.100000381469727,1.990000009536743
72,115,49.25689315795898,-123.2419586181641,123.629997253418,-8.930000305175781,4.070000171661377
73,115,49.25688934326172,-123.241943359375,124.2399978637695,-8.689999580383301,6.659999847412109
74,114.9899978637695,49.25688552856445,-123.2419357299805,124.6699981689453,-8.510000228881836,10.01000022888184
75,114.9899978637695,49.25688171386719,-123.2419357299805,124.9100036621094,-8.399999618530273,11.03999996185303
