index,altitude - sea level (m),latitude (degree),longitude (degree),yaw - north is zero (degree),roll (degree),pitch (degree)
1,114.1900024414062,49.25736236572266,-123.2431106567383,119.2399978637695,-9.729999542236328,5.889999866485596
2,114.4400024414062,49.25735855102539,-123.2431106567383,119.2600021362305,-10.06999969482422,6.090000152587891
3,114.7099990844727,49.25736236572266,-123.2431106567383,119.2600021362305,-9.949999809265137,5.980000019073486
4,114.9199981689453,49.25735855102539,-123.2431106567383,119.0199966430664,-8.899999618530273,-1.639999985694885
5,114.9400024414062,49.25735855102539,-123.2430953979492,119.129997253418,-8.760000228881836,-2.470000028610229
6,114.9599990844727,49.25735473632812,-123.2430877685547,124.0599975585938,-9.260000228881836,-4.670000076293945
7,114.9599990844727,49.25735092163086,-123.2430877685547,124.5500030517578,-9.550000190734863,-5.840000152587891
8,114.9599990844727,49.25734710693359,-123.2430725097656,123.1500015258789,-9.310000419616699,-7.730000019073486
9,114.9599990844727,49.25734329223633,-123.2430572509766,121.75,-9.039999961853027,-9.140000343322754
10,114.9599990844727,49.25733947753906,-123.243049621582,121.4400024414062,-8.920000076293945,-9.569999694824219
11,114.9599990844727,49.2573356628418,-123.243049621582,121.9599990844727,-9.180000305175781,-9.649999618530273
12,114.9700012207031,49.25733184814453,-123.243034362793,122.4100036621094,-9.350000381469727,-9.869999885559082
13,114.9700012207031,49.25732421875,-123.2430191040039,122.3899993896484,-9.380000114440918,-10.18000030517578
14,114.9700012207031,49.25731658935547,-123.2429962158203,122.0999984741211,-9.260000228881836,-10.47999954223633
15,114.9700012207031,49.2573127746582,-123.2429809570312,121.9199981689453,-9.180000305175781,-10.6899995803833
16,114.9700012207031,49.25730514526367,-123.2429733276367,121.9599990844727,-9.170000076293945,-10.85000038146973
17,114.9700012207031,49.25729751586914,-123.2429580688477,122.0800018310547,-9.289999961853027,-10.92000007629395
18,114.9700012207031,49.25729370117188,-123.2429428100586,122.1600036621094,-9.300000190734863,-11.03999996185303
19,114.9700012207031,49.25728607177734,-123.242919921875,122.1500015258789,-9.210000038146973,-11.14999961853027
20,114.9800033569336,49.25727844238281,-123.2429046630859,122.129997253418,-9.25,-11.32999992370605
21,114.9800033569336,49.25727462768555,-123.2428894042969,122.1500015258789,-9.270000457763672,-11.53999996185303
22,114.9800033569336,49.25726699829102,-123.2428665161133,122.1699981689453,-9.270000457763672,-11.59000015258789
23,114.9800033569336,49.25725936889648,-123.2428512573242,122.2099990844727,-9.229999542236328,-11.69999980926514
24,114.9800033569336,49.25725173950195,-123.2428436279297,122.2399978637695,-9.170000076293945,-11.77000045776367
25,114.9800033569336,49.25724411010742,-123.2428131103516,122.2600021362305,-9.159999847412109,-11.88000011444092
26,114.9800033569336,49.25724029541016,-123.242805480957,122.2799987792969,-9.220000267028809,-11.94999980926514
27,114.9800033569336,49.25723266601562,-123.242790222168,122.3000030517578,-9.199999809265137,-12.01000022888184
28,114.9800033569336,49.25722122192383,-123.2427673339844,122.3099975585938,-9.189999580383301,-12.02000045776367
29,114.9899978637695,49.25721740722656,-123.2427520751953,122.3399963378906,-9.220000267028809,-12.15999984741211
30,114.9899978637695,49.25720977783203,-123.2427291870117,122.3399963378906,-9.159999847412109,-12.25
31,114.9899978637695,49.25719833374023,-123.2427139282227,122.3399963378906,-9.189999580383301,-12.25
32,114.9899978637695,49.25719451904297,-123.2426910400391,122.3499984741211,-9.170000076293945,-12.22999954223633
33,114.9899978637695,49.25718688964844,-123.24267578125,122.379997253418,-9.189999580383301,-12.34000015258789
34,114.9899978637695,49.25717926025391,-123.2426528930664,122.379997253418,-9.199999809265137,-12.35000038146973
35,114.9899978637695,49.25717163085938,-123.2426376342773,122.379997253418,-9.140000343322754,-12.38000011444092
36,114.9899978637695,49.25716400146484,-123.2426223754883,122.370002746582,-9.180000305175781,-12.42000007629395
37,114.9899978637695,49.25715637207031,-123.2425994873047,122.379997253418,-9.199999809265137,-12.46000003814697
38,114.9899978637695,49.25714874267578,-123.2425842285156,122.379997253418,-9.109999656677246,-12.47000026702881
39,114.9899978637695,49.25713729858398,-123.242561340332,122.4000015258789,-9.130000114440918,-12.52999973297119
40,114.9899978637695,49.25713348388672,-123.242546081543,122.4000015258789,-9.189999580383301,-12.48999977111816
41,114.9899978637695,49.25712585449219,-123.2425231933594,122.4000015258789,-9.189999580383301,-12.55000019073486
42,114.9899978637695,49.25711822509766,-123.2425079345703,122.4000015258789,-9.159999847412109,-12.59000015258789
43,114.9899978637695,49.25711059570312,-123.2424850463867,122.370002746582,-9.069999694824219,-12.55000019073486
44,114.9899978637695,49.25709915161133,-123.2424697875977,122.370002746582,-9.100000381469727,-12.56999969482422
45,114.9899978637695,49.25709533691406,-123.2424468994141,122.379997253418,-9.119999885559082,-12.60999965667725
46,114.9899978637695,49.25708389282227,-123.242431640625,122.4000015258789,-9.119999885559082,-12.72999954223633
47,114.9899978637695,49.257080078125,-123.2424087524414,122.3899993896484,-9.109999656677246,-12.6899995803833
48,114.9899978637695,49.2570686340332,-123.2423934936523,122.3899993896484,-9.119999885559082,-12.68000030517578
49,114.9800033569336,49.25706100463867,-123.2423706054688,122.3899993896484,-9.109999656677246,-12.64999961853027
50,114.9800033569336,49.25705718994141,-123.2423553466797,122.4100036621094,-9.130000114440918,-12.67000007629395
51,114.9800033569336,49.25704574584961,-123.2423324584961,122.4199981689453,-9.109999656677246,-12.73999977111816
52,114.9800033569336,49.25703811645508,-123.242317199707,122.4000015258789,-9.090000152587891,-12.6899995803833
53,114.9800033569336,49.25703048706055,-123.2422943115234,122.4199981689453,-9.050000190734863,-12.69999980926514
54,114.9899978637695,49.25702285766602,-123.2422790527344,122.4199981689453,-9.079999923706055,-12.73999977111816
55,114.9899978637695,49.25701522827148,-123.2422561645508,122.4199981689453,-9.079999923706055,-12.73999977111816
56,114.9899978637695,49.25700759887695,-123.2422409057617,122.4199981689453,-9.079999923706055,-12.76000022888184
57,114.9899978637695,49.25699996948242,-123.2422180175781,122.4199981689453,-9.060000419616699,-12.68000030517578
58,114.9899978637695,49.25699234008789,-123.2422027587891,122.4400024414062,-9.109999656677246,-12.81999969482422
59,114.9899978637695,49.25698471069336,-123.2421722412109,122.4100036621094,-9.069999694824219,-12.8100004196167
60,114.9899978637695,49.25697708129883,-123.2421646118164,122.4000015258789,-9.029999732971191,-12.76000022888184
61,114.9899978637695,49.2569694519043,-123.2421340942383,122.4000015258789,-9.100000381469727,-12.72999954223633
62,114.9899978637695,49.25696182250977,-123.2421264648438,122.379997253418,-9.119999885559082,-12.27999973297119
63,114.9899978637695,49.25695419311523,-123.2420959472656,122.370002746582,-9.140000343322754,-11.5600004196167
64,114.9899978637695,49.25694274902344,-123.2420883178711,122.3899993896484,-9.140000343322754,-10.60000038146973
65,114.9899978637695,49.25693893432617,-123.242057800293,122.4100036621094,-9.210000038146973,-9.420000076293945
66,114.9899978637695,49.25693130493164,-123.2420501708984,122.4400024414062,-9.189999580383301,-8.020000457763672
67,114.9899978637695,49.25691986083984,-123.2420196533203,122.5,-9.130000114440918,-6.369999885559082
68,114.9899978637695,49.25691604614258,-123.2420120239258,122.5899963378906,-9.159999847412109,-4.46999979019165
69,114.9899978637695,49.25690841674805,-123.2419967651367,122.7399978637695,-9.180000305175781,-2.369999885559082
70,115,49.25690078735352,-123.2419815063477,122.9700012207031,-9.140000343322754,-0.5400000214576721
71,115,49.25690078735352,-123.2419738769531,123.2200012207031,-9.010000228881836,1.25
72,115,49.25689315795898,-123.2419586181641,123.5500030517578,-9,3.289999961853027
73,115,49.25688934326172,-123.241943359375,124.0800018310547,-8.850000381469727,5.670000076293945
74,114.9899978637695,49.25688552856445,-123.241943359375,124.5599975585938,-8.579999923706055,8.909999847412109
75,114.9899978637695,49.25688552856445,-123.2419357299805,124.8000030517578,-8.390000343322754,11.10000038146973
76,114.9899978637695,49.25688171386719,-123.2419357299805,124.8099975585938,-8.420000076293945,10.61999988555908
